# temperature (C)	resistance (ohm)	
79.5	6.68
76.0	6.93
75.0	7.54
73.0	8.01
67.0	9.95
65.0	10.33
62.0	11.76
61.5	12.36
56.5	14.45
54.5	15.33
51.0	17.23
48.0	19.51
46.0	21.7
44.0	24.3
41.0	26.1
36.5	31.4
35.5	33.7
34.0	35.5
32.0	38.0
31.0	40.3
28.5	44.3
26.5	47.7
25.0	51.6
23.0	56.3
21.0	61.3
19.5	66.9
17.5	73.8
13.0	92.9
10.0	104.7
5.0	126.2
